time energy 
0 0.32109
0.0005005 0.32161
0.001001 0.32208
0.0015015 0.32252
0.002002 0.3229
0.0025025 0.32324
0.003003 0.32354
0.0035035 0.32379
0.004004 0.324
0.0045045 0.32417
0.005005 0.3243
0.0055055 0.32439
0.006006 0.32446
0.0065065 0.3245
0.007007 0.32453
0.0075075 0.32454
0.008008 0.32455
0.0085085 0.32456
0.009009 0.32458
0.0095095 0.32461
0.01001 0.32466
0.010511 0.32474
0.011011 0.32485
0.011512 0.32499
0.012012 0.32519
0.012513 0.32543
0.013013 0.32572
0.013514 0.32606
0.014014 0.32646
0.014515 0.32692
0.015015 0.32744
0.015516 0.32801
0.016016 0.32864
0.016517 0.32932
0.017017 0.33006
0.017518 0.33084
0.018018 0.33167
0.018519 0.33253
0.019019 0.33342
0.01952 0.33434
0.02002 0.33527
0.020521 0.33622
0.021021 0.33717
0.021522 0.33811
0.022022 0.33904
0.022523 0.33995
0.023023 0.34084
0.023524 0.34169
0.024024 0.3425
0.024525 0.34327
0.025025 0.34399
0.025526 0.34465
0.026026 0.34526
0.026527 0.34582
0.027027 0.34631
0.027528 0.34675
0.028028 0.34713
0.028529 0.34745
0.029029 0.34772
0.02953 0.34795
0.03003 0.34814
0.030531 0.34829
0.031031 0.34841
0.031532 0.34851
0.032032 0.3486
0.032533 0.34868
0.033033 0.34876
0.033534 0.34886
0.034034 0.34898
0.034535 0.34913
0.035035 0.34931
0.035536 0.34954
0.036036 0.34982
0.036537 0.35015
0.037037 0.35055
0.037538 0.35101
0.038038 0.35155
0.038539 0.35215
0.039039 0.35283
0.03954 0.35358
0.04004 0.35441
0.040541 0.3553
0.041041 0.35626
0.041542 0.35728
0.042042 0.35836
0.042543 0.35948
0.043043 0.36065
0.043544 0.36186
0.044044 0.36309
0.044545 0.36434
0.045045 0.3656
0.045546 0.36686
0.046046 0.3681
0.046547 0.36933
0.047047 0.37053
0.047548 0.3717
0.048048 0.37282
0.048549 0.3739
0.049049 0.37492
0.04955 0.37587
0.05005 0.37677
0.050551 0.3776
0.051051 0.37836
0.051552 0.37906
0.052052 0.37969
0.052553 0.38026
0.053053 0.38077
0.053554 0.38123
0.054054 0.38164
0.054555 0.38201
0.055055 0.38235
0.055556 0.38266
0.056056 0.38296
0.056557 0.38325
0.057057 0.38355
0.057558 0.38385
0.058058 0.38418
0.058559 0.38454
0.059059 0.38494
0.05956 0.38538
0.06006 0.38588
0.060561 0.38643
0.061061 0.38705
0.061562 0.38773
0.062062 0.38849
0.062563 0.38931
0.063063 0.39021
0.063564 0.39118
0.064064 0.39222
0.064565 0.39332
0.065065 0.39449
0.065566 0.39571
0.066066 0.39698
0.066567 0.3983
0.067067 0.39965
0.067568 0.40103
0.068068 0.40243
0.068569 0.40384
0.069069 0.40526
0.06957 0.40667
0.07007 0.40806
0.070571 0.40944
0.071071 0.41079
0.071572 0.41211
0.072072 0.41339
0.072573 0.41463
0.073073 0.41582
0.073574 0.41697
0.074074 0.41807
0.074575 0.41913
0.075075 0.42014
0.075576 0.42111
0.076076 0.42204
0.076577 0.42293
0.077077 0.4238
0.077578 0.42465
0.078078 0.42548
0.078579 0.4263
0.079079 0.42712
0.07958 0.42794
0.08008 0.42878
0.080581 0.42963
0.081081 0.43051
0.081582 0.43142
0.082082 0.43236
0.082583 0.43334
0.083083 0.43436
0.083584 0.43543
0.084084 0.43654
0.084585 0.43769
0.085085 0.43889
0.085586 0.44013
0.086086 0.44141
0.086587 0.44272
0.087087 0.44406
0.087588 0.44543
0.088088 0.44681
0.088589 0.44821
0.089089 0.44961
0.08959 0.45101
0.09009 0.4524
0.090591 0.45378
0.091091 0.45514
0.091592 0.45647
0.092092 0.45778
0.092593 0.45906
0.093093 0.4603
0.093594 0.4615
0.094094 0.46268
0.094595 0.46382
0.095095 0.46492
0.095596 0.46601
0.096096 0.46707
0.096597 0.46812
0.097097 0.46916
0.097598 0.47019
0.098098 0.47124
0.098599 0.47231
0.099099 0.4734
0.0996 0.47452
0.1001 0.4757
0.1006 0.47692
0.1011 0.4782
0.1016 0.47956
0.1021 0.48098
0.1026 0.48248
0.1031 0.48407
0.1036 0.48573
0.1041 0.48748
0.1046 0.48931
0.10511 0.49121
0.10561 0.49319
0.10611 0.49523
0.10661 0.49732
0.10711 0.49945
0.10761 0.50162
0.10811 0.50381
0.10861 0.506
0.10911 0.50819
0.10961 0.51034
0.11011 0.51246
0.11061 0.51453
0.11111 0.51653
0.11161 0.51844
0.11211 0.52027
0.11261 0.52199
0.11311 0.5236
0.11361 0.5251
0.11411 0.52647
0.11461 0.52773
0.11512 0.52886
0.11562 0.52988
0.11612 0.53079
0.11662 0.53161
0.11712 0.53234
0.11762 0.533
0.11812 0.5336
0.11862 0.53417
0.11912 0.53473
0.11962 0.53529
0.12012 0.53588
0.12062 0.53652
0.12112 0.53723
0.12162 0.53804
0.12212 0.53896
0.12262 0.54002
0.12312 0.54122
0.12362 0.54259
0.12412 0.54414
0.12462 0.54587
0.12513 0.5478
0.12563 0.54992
0.12613 0.55223
0.12663 0.55473
0.12713 0.55741
0.12763 0.56026
0.12813 0.56325
0.12863 0.56638
0.12913 0.56962
0.12963 0.57295
0.13013 0.57633
0.13063 0.57975
0.13113 0.58316
0.13163 0.58654
0.13213 0.58985
0.13263 0.59308
0.13313 0.59618
0.13363 0.59912
0.13413 0.6019
0.13463 0.60447
0.13514 0.60683
0.13564 0.60896
0.13614 0.61085
0.13664 0.6125
0.13714 0.6139
0.13764 0.61506
0.13814 0.616
0.13864 0.61672
0.13914 0.61725
0.13964 0.61761
0.14014 0.61784
0.14064 0.61796
0.14114 0.618
0.14164 0.61801
0.14214 0.61803
0.14264 0.61808
0.14314 0.61822
0.14364 0.61847
0.14414 0.61888
0.14464 0.61948
0.14515 0.62029
0.14565 0.62135
0.14615 0.62267
0.14665 0.62428
0.14715 0.62618
0.14765 0.62839
0.14815 0.6309
0.14865 0.63371
0.14915 0.63682
0.14965 0.64019
0.15015 0.64382
0.15065 0.64767
0.15115 0.65172
0.15165 0.65592
0.15215 0.66025
0.15265 0.66464
0.15315 0.66906
0.15365 0.67347
0.15415 0.67781
0.15465 0.68204
0.15516 0.68612
0.15566 0.69
0.15616 0.69364
0.15666 0.69702
0.15716 0.70009
0.15766 0.70285
0.15816 0.70527
0.15866 0.70734
0.15916 0.70906
0.15966 0.71045
0.16016 0.7115
0.16066 0.71225
0.16116 0.71272
0.16166 0.71293
0.16216 0.71294
0.16266 0.71279
0.16316 0.71252
0.16366 0.71218
0.16416 0.71182
0.16466 0.7115
0.16517 0.71127
0.16567 0.71118
0.16617 0.71127
0.16667 0.71159
0.16717 0.71218
0.16767 0.71308
0.16817 0.7143
0.16867 0.71588
0.16917 0.71782
0.16967 0.72015
0.17017 0.72284
0.17067 0.72591
0.17117 0.72932
0.17167 0.73307
0.17217 0.73711
0.17267 0.74143
0.17317 0.74596
0.17367 0.75067
0.17417 0.7555
0.17467 0.7604
0.17518 0.76532
0.17568 0.77019
0.17618 0.77496
0.17668 0.77958
0.17718 0.78399
0.17768 0.78814
0.17818 0.79199
0.17868 0.79551
0.17918 0.79865
0.17968 0.80141
0.18018 0.80377
0.18068 0.80573
0.18118 0.80728
0.18168 0.80845
0.18218 0.80925
0.18268 0.80971
0.18318 0.80989
0.18368 0.80981
0.18418 0.80952
0.18468 0.8091
0.18519 0.80858
0.18569 0.80803
0.18619 0.80751
0.18669 0.80707
0.18719 0.80679
0.18769 0.8067
0.18819 0.80685
0.18869 0.8073
0.18919 0.80808
0.18969 0.80922
0.19019 0.81073
0.19069 0.81264
0.19119 0.81495
0.19169 0.81766
0.19219 0.82075
0.19269 0.82421
0.19319 0.828
0.19369 0.83209
0.19419 0.83644
0.19469 0.841
0.1952 0.84572
0.1957 0.85053
0.1962 0.85538
0.1967 0.8602
0.1972 0.86494
0.1977 0.86954
0.1982 0.87393
0.1987 0.87806
0.1992 0.88189
0.1997 0.88538
0.2002 0.88849
0.2007 0.89119
0.2012 0.89349
0.2017 0.89536
0.2022 0.89682
0.2027 0.89787
0.2032 0.89855
0.2037 0.89888
0.2042 0.8989
0.2047 0.89866
0.20521 0.89821
0.20571 0.89762
0.20621 0.89693
0.20671 0.89622
0.20721 0.89553
0.20771 0.89494
0.20821 0.89451
0.20871 0.89428
0.20921 0.8943
0.20971 0.89462
0.21021 0.89527
0.21071 0.89627
0.21121 0.89766
0.21171 0.89944
0.21221 0.9016
0.21271 0.90415
0.21321 0.90705
0.21371 0.9103
0.21421 0.91385
0.21471 0.91766
0.21522 0.92168
0.21572 0.92587
0.21622 0.93016
0.21672 0.9345
0.21722 0.93882
0.21772 0.94307
0.21822 0.94717
0.21872 0.95109
0.21922 0.95475
0.21972 0.95812
0.22022 0.96116
0.22072 0.96383
0.22122 0.96611
0.22172 0.96798
0.22222 0.96945
0.22272 0.97052
0.22322 0.97119
0.22372 0.97151
0.22422 0.97149
0.22472 0.97117
0.22523 0.97062
0.22573 0.96987
0.22623 0.96898
0.22673 0.96801
0.22723 0.96702
0.22773 0.96608
0.22823 0.96523
0.22873 0.96453
0.22923 0.96404
0.22973 0.9638
0.23023 0.96384
0.23073 0.9642
0.23123 0.9649
0.23173 0.96595
0.23223 0.96736
0.23273 0.96913
0.23323 0.97123
0.23373 0.97366
0.23423 0.97639
0.23473 0.97936
0.23524 0.98255
0.23574 0.98591
0.23624 0.98937
0.23674 0.99289
0.23724 0.9964
0.23774 0.99985
0.23824 1.0032
0.23874 1.0063
0.23924 1.0093
0.23974 1.012
0.24024 1.0143
0.24074 1.0163
0.24124 1.018
0.24174 1.0193
0.24224 1.0202
0.24274 1.0207
0.24324 1.0209
0.24374 1.0207
0.24424 1.0202
0.24474 1.0194
0.24525 1.0184
0.24575 1.0172
0.24625 1.0159
0.24675 1.0146
0.24725 1.0132
0.24775 1.0118
0.24825 1.0105
0.24875 1.0094
0.24925 1.0085
0.24975 1.0078
0.25025 1.0074
0.25075 1.0073
0.25125 1.0074
0.25175 1.0079
0.25225 1.0087
0.25275 1.0099
0.25325 1.0113
0.25375 1.013
0.25425 1.015
0.25475 1.0171
0.25526 1.0195
0.25576 1.0219
0.25626 1.0245
0.25676 1.027
0.25726 1.0295
0.25776 1.0319
0.25826 1.0341
0.25876 1.0362
0.25926 1.038
0.25976 1.0395
0.26026 1.0407
0.26076 1.0416
0.26126 1.0421
0.26176 1.0423
0.26226 1.0422
0.26276 1.0416
0.26326 1.0408
0.26376 1.0397
0.26426 1.0383
0.26476 1.0367
0.26527 1.0349
0.26577 1.033
0.26627 1.031
0.26677 1.029
0.26727 1.027
0.26777 1.0251
0.26827 1.0234
0.26877 1.0218
0.26927 1.0204
0.26977 1.0193
0.27027 1.0184
0.27077 1.0178
0.27127 1.0175
0.27177 1.0175
0.27227 1.0178
0.27277 1.0183
0.27327 1.0191
0.27377 1.0201
0.27427 1.0212
0.27477 1.0225
0.27528 1.0239
0.27578 1.0253
0.27628 1.0267
0.27678 1.028
0.27728 1.0292
0.27778 1.0303
0.27828 1.0311
0.27878 1.0317
0.27928 1.032
0.27978 1.032
0.28028 1.0317
0.28078 1.0311
0.28128 1.0301
0.28178 1.0288
0.28228 1.0271
0.28278 1.0252
0.28328 1.023
0.28378 1.0206
0.28428 1.018
0.28478 1.0153
0.28529 1.0125
0.28579 1.0097
0.28629 1.0068
0.28679 1.0041
0.28729 1.0014
0.28779 0.99888
0.28829 0.99655
0.28879 0.99444
0.28929 0.99257
0.28979 0.99096
0.29029 0.98962
0.29079 0.98855
0.29129 0.98773
0.29179 0.98717
0.29229 0.98683
0.29279 0.98669
0.29329 0.9867
0.29379 0.98684
0.29429 0.98705
0.29479 0.98729
0.2953 0.9875
0.2958 0.98765
0.2963 0.98767
0.2968 0.98753
0.2973 0.98718
0.2978 0.98659
0.2983 0.98573
0.2988 0.98456
0.2993 0.98308
0.2998 0.98128
0.3003 0.97916
0.3008 0.97673
0.3013 0.974
0.3018 0.971
0.3023 0.96775
0.3028 0.96431
0.3033 0.96071
0.3038 0.95699
0.3043 0.95321
0.3048 0.94942
0.30531 0.94566
0.30581 0.94198
0.30631 0.93843
0.30681 0.93505
0.30731 0.93186
0.30781 0.92891
0.30831 0.92621
0.30881 0.92378
0.30931 0.92162
0.30981 0.91972
0.31031 0.91809
0.31081 0.91671
0.31131 0.91554
0.31181 0.91456
0.31231 0.91373
0.31281 0.913
0.31331 0.91234
0.31381 0.9117
0.31431 0.91102
0.31481 0.91026
0.31532 0.90937
0.31582 0.90831
0.31632 0.90704
0.31682 0.90553
0.31732 0.90375
0.31782 0.90168
0.31832 0.89932
0.31882 0.89665
0.31932 0.89368
0.31982 0.89044
0.32032 0.88694
0.32082 0.88321
0.32132 0.87929
0.32182 0.87522
0.32232 0.87105
0.32282 0.86682
0.32332 0.86259
0.32382 0.85841
0.32432 0.85432
0.32482 0.85037
0.32533 0.84661
0.32583 0.84306
0.32633 0.83977
0.32683 0.83676
0.32733 0.83405
0.32783 0.83163
0.32833 0.82952
0.32883 0.82771
0.32933 0.82617
0.32983 0.82489
0.33033 0.82383
0.33083 0.82296
0.33133 0.82224
0.33183 0.82162
0.33233 0.82105
0.33283 0.82047
0.33333 0.81985
0.33383 0.81913
0.33433 0.81826
0.33483 0.81721
0.33534 0.81593
0.33584 0.8144
0.33634 0.8126
0.33684 0.81051
0.33734 0.80813
0.33784 0.80546
0.33834 0.80251
0.33884 0.79932
0.33934 0.7959
0.33984 0.79229
0.34034 0.78854
0.34084 0.78469
0.34134 0.78079
0.34184 0.7769
0.34234 0.77306
0.34284 0.76933
0.34334 0.76577
0.34384 0.7624
0.34434 0.75928
0.34484 0.75643
0.34535 0.75388
0.34585 0.75165
0.34635 0.74974
0.34685 0.74817
0.34735 0.74692
0.34785 0.74597
0.34835 0.7453
0.34885 0.74487
0.34935 0.74465
0.34985 0.74459
0.35035 0.74464
0.35085 0.74476
0.35135 0.74487
0.35185 0.74494
0.35235 0.7449
0.35285 0.74471
0.35335 0.74431
0.35385 0.74368
0.35435 0.74278
0.35485 0.74158
0.35536 0.74007
0.35586 0.73824
0.35636 0.7361
0.35686 0.73366
0.35736 0.73095
0.35786 0.72799
0.35836 0.72483
0.35886 0.72151
0.35936 0.71808
0.35986 0.71459
0.36036 0.71111
0.36086 0.70769
0.36136 0.70439
0.36186 0.70125
0.36236 0.69834
0.36286 0.69568
0.36336 0.69331
0.36386 0.69127
0.36436 0.68957
0.36486 0.68822
0.36537 0.68722
0.36587 0.68656
0.36637 0.68622
0.36687 0.68618
0.36737 0.68639
0.36787 0.68681
0.36837 0.6874
0.36887 0.6881
0.36937 0.68884
0.36987 0.68957
0.37037 0.69023
0.37087 0.69076
0.37137 0.69111
0.37187 0.69122
0.37237 0.69106
0.37287 0.69058
0.37337 0.68977
0.37387 0.6886
0.37437 0.68708
0.37487 0.68521
0.37538 0.683
0.37588 0.68049
0.37638 0.67771
0.37688 0.67471
0.37738 0.67154
0.37788 0.66826
0.37838 0.66493
0.37888 0.66162
0.37938 0.65837
0.37988 0.65527
0.38038 0.65236
0.38088 0.6497
0.38138 0.64733
0.38188 0.64529
0.38238 0.64361
0.38288 0.6423
0.38338 0.64138
0.38388 0.64084
0.38438 0.64067
0.38488 0.64084
0.38539 0.64131
0.38589 0.64206
0.38639 0.64301
0.38689 0.64413
0.38739 0.64533
0.38789 0.64656
0.38839 0.64776
0.38889 0.64884
0.38939 0.64975
0.38989 0.65044
0.39039 0.65083
0.39089 0.6509
0.39139 0.6506
0.39189 0.64991
0.39239 0.64882
0.39289 0.64733
0.39339 0.64545
0.39389 0.6432
0.39439 0.64063
0.39489 0.63777
0.3954 0.63468
0.3959 0.63144
0.3964 0.62809
0.3969 0.62471
0.3974 0.62138
0.3979 0.61817
0.3984 0.61513
0.3989 0.61234
0.3994 0.60985
0.3999 0.60771
0.4004 0.60595
0.4009 0.6046
0.4014 0.60367
0.4019 0.60317
0.4024 0.60308
0.4029 0.6034
0.4034 0.60407
0.4039 0.60506
0.4044 0.60632
0.4049 0.60779
0.40541 0.60938
0.40591 0.61104
0.40641 0.61269
0.40691 0.61424
0.40741 0.61563
0.40791 0.61678
0.40841 0.61763
0.40891 0.61813
0.40941 0.61822
0.40991 0.61788
0.41041 0.61709
0.41091 0.61584
0.41141 0.61415
0.41191 0.61202
0.41241 0.60951
0.41291 0.60665
0.41341 0.60352
0.41391 0.60017
0.41441 0.59668
0.41491 0.59314
0.41542 0.58961
0.41592 0.58619
0.41642 0.58295
0.41692 0.57997
0.41742 0.5773
0.41792 0.57501
0.41842 0.57314
0.41892 0.57173
0.41942 0.57078
0.41992 0.57032
0.42042 0.57034
0.42092 0.57081
0.42142 0.57169
0.42192 0.57295
0.42242 0.57453
0.42292 0.57636
0.42342 0.57835
0.42392 0.58044
0.42442 0.58252
0.42492 0.58452
0.42543 0.58635
0.42593 0.58793
0.42643 0.58917
0.42693 0.59002
0.42743 0.59043
0.42793 0.59034
0.42843 0.58974
0.42893 0.58861
0.42943 0.58697
0.42993 0.58484
0.43043 0.58225
0.43093 0.57926
0.43143 0.57594
0.43193 0.57237
0.43243 0.56863
0.43293 0.56481
0.43343 0.561
0.43393 0.5573
0.43443 0.5538
0.43493 0.55058
0.43544 0.54771
0.43594 0.54527
0.43644 0.5433
0.43694 0.54184
0.43744 0.54093
0.43794 0.54056
0.43844 0.54073
0.43894 0.54142
0.43944 0.54259
0.43994 0.54419
0.44044 0.54615
0.44094 0.5484
0.44144 0.55085
0.44194 0.5534
0.44244 0.55596
0.44294 0.55843
0.44344 0.5607
0.44394 0.56268
0.44444 0.56429
0.44494 0.56544
0.44545 0.56607
0.44595 0.56614
0.44645 0.56562
0.44695 0.5645
0.44745 0.56278
0.44795 0.5605
0.44845 0.55769
0.44895 0.55444
0.44945 0.5508
0.44995 0.54688
0.45045 0.54276
0.45095 0.53857
0.45145 0.5344
0.45195 0.53036
0.45245 0.52655
0.45295 0.52307
0.45345 0.52001
0.45395 0.51743
0.45445 0.5154
0.45495 0.51397
0.45546 0.51314
0.45596 0.51295
0.45646 0.51336
0.45696 0.51437
0.45746 0.51592
0.45796 0.51796
0.45846 0.5204
0.45896 0.52316
0.45946 0.52613
0.45996 0.52921
0.46046 0.53228
0.46096 0.53523
0.46146 0.53794
0.46196 0.5403
0.46246 0.54221
0.46296 0.54359
0.46346 0.54436
0.46396 0.54448
0.46446 0.54392
0.46496 0.54266
0.46547 0.54072
0.46597 0.53814
0.46647 0.53498
0.46697 0.53131
0.46747 0.52724
0.46797 0.52285
0.46847 0.51828
0.46897 0.51365
0.46947 0.50907
0.46997 0.50467
0.47047 0.50056
0.47097 0.49686
0.47147 0.49365
0.47197 0.49102
0.47247 0.48902
0.47297 0.48771
0.47347 0.4871
0.47397 0.4872
0.47447 0.488
0.47497 0.48945
0.47548 0.49151
0.47598 0.49409
0.47648 0.49711
0.47698 0.50045
0.47748 0.504
0.47798 0.50764
0.47848 0.51122
0.47898 0.51462
0.47948 0.51771
0.47998 0.52036
0.48048 0.52247
0.48098 0.52394
0.48148 0.5247
0.48198 0.52469
0.48248 0.52389
0.48298 0.52231
0.48348 0.51996
0.48398 0.51691
0.48448 0.51323
0.48498 0.50901
0.48549 0.50438
0.48599 0.49945
0.48649 0.49437
0.48699 0.48928
0.48749 0.48432
0.48799 0.47961
0.48849 0.4753
0.48899 0.4715
0.48949 0.46829
0.48999 0.46577
0.49049 0.46399
0.49099 0.463
0.49149 0.46281
0.49199 0.46341
0.49249 0.46478
0.49299 0.46686
0.49349 0.46958
0.49399 0.47284
0.49449 0.47654
0.49499 0.48054
0.4955 0.4847
0.496 0.48888
0.4965 0.49293
0.497 0.49669
0.4975 0.50002
0.498 0.50279
0.4985 0.50488
0.499 0.5062
0.4995 0.50667
0.5 0.50627
0.5005 0.50496
0.501 0.50278
0.5015 0.49978
0.502 0.49602
0.5025 0.49162
0.503 0.4867
0.5035 0.4814
0.504 0.47587
0.5045 0.47027
0.50501 0.46476
0.50551 0.4595
0.50601 0.45464
0.50651 0.4503
0.50701 0.4466
0.50751 0.44365
0.50801 0.44151
0.50851 0.44023
0.50901 0.43985
0.50951 0.44037
0.51001 0.44175
0.51051 0.44394
0.51101 0.44688
0.51151 0.45046
0.51201 0.45456
0.51251 0.45905
0.51301 0.46376
0.51351 0.46854
0.51401 0.47322
0.51451 0.47761
0.51502 0.48156
0.51552 0.48491
0.51602 0.48753
0.51652 0.4893
0.51702 0.49013
0.51752 0.48998
0.51802 0.48881
0.51852 0.48666
0.51902 0.48356
0.51952 0.4796
0.52002 0.4749
0.52052 0.46959
0.52102 0.46383
0.52152 0.45779
0.52202 0.45165
0.52252 0.44559
0.52302 0.43979
0.52352 0.43441
0.52402 0.42961
0.52452 0.42551
0.52503 0.42222
0.52553 0.41984
0.52603 0.41841
0.52653 0.41797
0.52703 0.41853
0.52753 0.42006
0.52803 0.4225
0.52853 0.42577
0.52903 0.42978
0.52953 0.43437
0.53003 0.43941
0.53053 0.44472
0.53103 0.45012
0.53153 0.45541
0.53203 0.46041
0.53253 0.46492
0.53303 0.46878
0.53353 0.47182
0.53403 0.47391
0.53453 0.47497
0.53504 0.47492
0.53554 0.47374
0.53604 0.47146
0.53654 0.46812
0.53704 0.46383
0.53754 0.45872
0.53804 0.45293
0.53854 0.44664
0.53904 0.44006
0.53954 0.43338
0.54004 0.4268
0.54054 0.42051
0.54104 0.41471
0.54154 0.40954
0.54204 0.40516
0.54254 0.40168
0.54304 0.3992
0.54354 0.39777
0.54404 0.39743
0.54454 0.39817
0.54505 0.39998
0.54555 0.40277
0.54605 0.40648
0.54655 0.41097
0.54705 0.41609
0.54755 0.42169
0.54805 0.42757
0.54855 0.43352
0.54905 0.43933
0.54955 0.4448
0.55005 0.44971
0.55055 0.45388
0.55105 0.45714
0.55155 0.45935
0.55205 0.4604
0.55255 0.46024
0.55305 0.45885
0.55355 0.45627
0.55405 0.45255
0.55455 0.44782
0.55506 0.44222
0.55556 0.43593
0.55606 0.42916
0.55656 0.42212
0.55706 0.41502
0.55756 0.40809
0.55806 0.40153
0.55856 0.39553
0.55906 0.39027
0.55956 0.3859
0.56006 0.38252
0.56056 0.38023
0.56106 0.37908
0.56156 0.37909
0.56206 0.38026
0.56256 0.38254
0.56306 0.38585
0.56356 0.39009
0.56406 0.39511
0.56456 0.40076
0.56507 0.40684
0.56557 0.41315
0.56607 0.41945
0.56657 0.42553
0.56707 0.43116
0.56757 0.43611
0.56807 0.4402
0.56857 0.44325
0.56907 0.44514
0.56957 0.44577
0.57007 0.44509
0.57057 0.44313
0.57107 0.43992
0.57157 0.43556
0.57207 0.43021
0.57257 0.42404
0.57307 0.41726
0.57357 0.41007
0.57407 0.40273
0.57457 0.39547
0.57508 0.3885
0.57558 0.38204
0.57608 0.37629
0.57658 0.3714
0.57708 0.36751
0.57758 0.36473
0.57808 0.36313
0.57858 0.36273
0.57908 0.36355
0.57958 0.36555
0.58008 0.36866
0.58058 0.37278
0.58108 0.37778
0.58158 0.38348
0.58208 0.38969
0.58258 0.39621
0.58308 0.40279
0.58358 0.40921
0.58408 0.4152
0.58458 0.42055
0.58509 0.42504
0.58559 0.42849
0.58609 0.43073
0.58659 0.43167
0.58709 0.43126
0.58759 0.42948
0.58809 0.42639
0.58859 0.42208
0.58909 0.41671
0.58959 0.41045
0.59009 0.40352
0.59059 0.39616
0.59109 0.38861
0.59159 0.38112
0.59209 0.37393
0.59259 0.36727
0.59309 0.36133
0.59359 0.35629
0.59409 0.3523
0.59459 0.34946
0.5951 0.34785
0.5956 0.34751
0.5961 0.34844
0.5966 0.35061
0.5971 0.35395
0.5976 0.35834
0.5981 0.36364
0.5986 0.36968
0.5991 0.37626
0.5996 0.38315
0.6001 0.39009
0.6006 0.39683
0.6011 0.40312
0.6016 0.4087
0.6021 0.41335
0.6026 0.41687
0.6031 0.4191
0.6036 0.41993
0.6041 0.41931
0.6046 0.41724
0.60511 0.41378
0.60561 0.40904
0.60611 0.4032
0.60661 0.39646
0.60711 0.38904
0.60761 0.38121
0.60811 0.37324
0.60861 0.36538
0.60911 0.3579
0.60961 0.35102
0.61011 0.34496
0.61061 0.3399
0.61111 0.33599
0.61161 0.33332
0.61211 0.33199
0.61261 0.33201
0.61311 0.33338
0.61361 0.33606
0.61411 0.33997
0.61461 0.34498
0.61512 0.35094
0.61562 0.35765
0.61612 0.36489
0.61662 0.3724
0.61712 0.37992
0.61762 0.38716
0.61812 0.39385
0.61862 0.39971
0.61912 0.40451
0.61962 0.40803
0.62012 0.41012
0.62062 0.41066
0.62112 0.40963
0.62162 0.40702
0.62212 0.40294
0.62262 0.39751
0.62312 0.39093
0.62362 0.38345
0.62412 0.37531
0.62462 0.36681
0.62513 0.35824
0.62563 0.34988
0.62613 0.342
0.62663 0.33484
0.62713 0.32863
0.62763 0.32354
0.62813 0.31972
0.62863 0.31727
0.62913 0.31626
0.62963 0.3167
0.63013 0.31859
0.63063 0.32187
